##TITLE=SVS-969F1
##JCAMP-DX=4.24
##DATA TYPE=INFRARED SPECTRUM
##DATE=22/3/2021
##SAMPLING PROCEDURE=Diamant-ATR
##ORIGIN=Angelika Moesle
##XUNITS=1/CM
##YUNITS=TRANSMITTANCE
##RESOLUTION=4
##FIRSTX=3997.453
##LASTX=373.96442
##DELTAX=-1.4165319
##MAXY=0.91151184
##MINY=0.40246102
##XFACTOR=1
##YFACTOR=8.4891155e-010
##NPOINTS=2559
##FIRSTY=0.83731413
##XYDATA=(X++(Y..Y))
3997+986338478+987140591+987548810+987315000+986654015+986090766+985974493
3988+986162524+986361578+986571866+986917876+987295411+987467082+987369626
3978+987141925+986934165+986808975+986776888+986820982+986882769+986932971
3968+987050719+987285932+987472418+987360147+986939571+986519066+986458963
3958+986833620+987340277+987616916+987669295+987782619+988022467+988145831
3948+988058837+987991433+988087344+988177567+988072669+987851428+987694783
3938+987624499+987618812+987783532+988137476+988371636+988212814+987880707
3928+987658904+987364009+986755684+986155152+986128681+986744800+987640368
3918+988481028+989034728+989085211+988582416+987809089+987291971+987456269
3908+988279938+989355812+990219081+990543255+990231930+989464642+988637392
3898+988159452+988130454+988298123+988432441+988570339+988806255+989005941
3888+989054107+989108030+989322180+989562098+989594326+989327797+988749172
3878+987978373+987230324+986701339+986618698+987089336+987750742+987907669
3869+987360709+986731039+986577272+986898005+987405716+987897417+988313500
3859+988586769+988748118+989158092+990302003+991710336+991981288+991186617
3849+990319907+989833963+989692764+989640947+989388812+988916068+988592316
3839+988718418+989031217+989082192+988902938+988769182+988756544+988784348
3829+988856878+989096445+989507051+989799067+989599522+988854491+988081446
3819+987885973+988243568+988792493+989330325+989956133+990752490+991487760
3809+991801823+991584093+991072872+990499582+989869982+989260112+988928425
3799+988907502+988995690+989157320+989412334+989584917+989495747+989219880
3789+988973292+988880821+988941204+989060286+989061690+988866849+988615556
3779+988467407+988397124+988326349+988310691+988444307+988755561+989242839
3769+989889220+990588121+991093865+991166114+990879575+990601742+990521629
3759+990478027+990342937+990264860+990375165+990673008+991122442+991487269
3750+991428360+991169555+991246368+991747829+992176831+992075233+991625308
3740+991108680+990429299+989255267+987652023+986607253+987011961+988417766
3730+989786429+990606587+990978365+991224321+991525324+991769314+991751621
3720+991384828+990714294+989982112+989662643+990102949+990972607+991273119
3710+990592474+989854956+989939423+990855843+992120169+993140926+993497538
3700+993181930+992445325+991525956+990701726+990243375+990204056+990503584
3690+991088880+991667225+991714478+991243138+990828600+990921492+991464028
3680+992040547+992454594+993066219+994236249+995386479+995704684+995316336
3670+994541816+993479914+992467302+991958679+991999824+992237425+992329263
3660+992348151+992651330+993282686+993641404+993206926+992413098+992073548
3650+992544888+993441648+994017606+994013814+993560730+992769218+991798874
3640+991004976+990811188+991288847+992029594+992552611+992642484+992271408
3631+991596942+991243840+991839247+992846382+993415389+993505893+993482021
3621+993474438+993201590+992495177+991787921+991574122+991789044+991936983
3611+991711038+991326130+991194340+991488041+992022924+992436128+992433108
3601+992054309+991712933+991753376+992163490+992826091+993657764+994419084
3591+994805396+994741010+994383977+993959750+993630030+993421708+993278543
3581+993159462+993079700+993017421+992878329+992647328+992412466+992197122
3571+991972722+991862136+992095243+992643186+993130324+993327903+993248913
3561+992833814+992104371+991416354+991203117+991634997+992616575+993745951
3551+994376815+994212798+993586638+992905151+992314097+991993224+992143971
3541+992579854+992859723+992761635+992362053+991859608+991494150+991469364
3531+991803157+992252942+992425034+992128033+991627203+991323883+991293200
3521+991376402+991487269+991587533+991638437+991718480+991922941+992156469
3512+992234546+992089135+991771772+991438822+991358639+991728099+992438164
3502+993127445+993498240+993510668+993301152+993016579+992732918+992505498
3492+992412887+992426298+992319153+991933753+991508614+991456164+991817621
3482+992196701+992245218+992016113+991775283+991681478+991727257+991856800
3472+992029875+992211235+992405164+992684471+993057513+993340050+993330290
3462+993044453+992636305+992233142+991995541+992101141+992506411+992923336
3452+993119370+993067483+992835640+992510132+992203863+991956222+991665259
3442+991253600+990873747+990797005+991077927+991475052+991733927+991776195
3432+991565205+991065640+990444184+990036317+989995453+990160453+990308322
3422+990345956+990284028+990205600+990266475+990602725+991218774+991940424
3412+992471023+992597898+992407691+992229982+992308480+992582592+992798708
3403+992778627+992553243+992293384+992203652+992439006+992947419+993384003
3393+993385969+992967710+992479730+992222750+992263614+992469479+992566162
3383+992377008+992089345+992021871+992182167+992357349+992509851+992746890
3373+993045857+993283809+993385408+993290199+992977189+992614118+992468355
3363+992623035+992943066+993321724+993754728+994136617+994230702+993956731
3353+993515583+993137064+992898831+992793020+992741835+992625141+992515187
3343+992729267+993445650+994428422+995225621+995475930+995095586+994389805
3333+993847479+993645968+993518953+993180526+992694933+992375042+992436338
3323+992802499+993223637+993548583+993813356+994096385+994389243+994654719
3313+994960567+995434926+996000702+996307954+996138390+995693942+995239663
3303+994749647+994210902+993930612+994173619+994766287+995305523+995502049
3293+995234397+994627055+994144200+994244534+994849068+995418566+995605543
3284+995581882+995660380+995832261+995876004+995783182+995771106+995852834
3274+995740493+995352215+995078103+995310017+995966508+996634094+996933763
3264+996704518+996129052+995669156+995595362+995669016+995551128+995324481
3254+995314651+995585252+995924732+996225735+996596600+997086827+997516742
3244+997673598+997534014+997169047+996606430+995947902+995442368+995241419
3234+995245631+995340489+995575001+995934702+996183607+996186205+996183186
3224+996434619+996748260+996727407+996389121+996141901+996193577+996382310
3214+996552577+996731409+996960514+997243613+997609353+998046288+998465530
3204+998808451+999070205+999237382+999347687+999519358+999717077+999605579
3194+998883789+997726328+996710275+996290542+996441148+996831533+997266503
3184+997794434+998388717+998787738+998815893+998682629+998730023+998980473
3174+999147299+999052301+998809012+998578573+998367864+998170285+998116572
3165+998321874+998709731+999125111+999500260+999787922+999886431+999792907
3155+999736948+999962753+1000334461+1000332986+999655922+998722018+998268091
3145+998474588+998818281+998780857+998410694+998164948+998377904+998945858
3135+999481723+999694750+999550392+999189918+998886317+998915736+999231835
3125+999443036+999285689+998889477+998477326+998106672+997782849+997558097
3115+997471033+997537455+997747392+997994892+998146482+998232493+998414275
3105+998752140+999147650+999482636+999717007+999909812+1000185749+1000570517
3095+1000894058+1001013280+1001054355+1001260360+1001659801+1001997175
3087+1001959260+1001447618+1000673028+999955380+999431661+999019160+998589456
3077+998053029+997295220+996173988+994712293+993314282+992600426+992823563
3067+993589798+994340515+994892881+995261219+995246614+994600795+993416933
3057+991993505+990462440+988890581+987620919+987122547+987518408+988513677
3047+989737420+990970782+992127050+993229675+994394369+995685095+996979682
3037+998047412+998773765+999246931+999684779+1000365776+1001439333+1002599603
3027+1003240367+1003221128+1003057883+1003062939+1002802659+1001691187
3019+999596381+996675239+993088687+988989932+984508446+979738032+974806410
3009+969804505+964718906+959668343+955196475+952158007+951221927+952468418
2999+955452191+959557617+964126729+968413304+971859078+974487503+976704900
2989+978719452+980408918+981691640+982708745+983558183+984065050+983986973
2979+983361024+982462579+981423285+979974159+977542120+973577261+967879474
2969+960648938+952233416+942917482+932960082+922762623+913009473+904667043
2959+898722598+895805176+895971160+898759740+903412336+909105067+915082021
2949+920722444+925601406+929375496+931526964+931451344+928919041+924253105
2939+918078923+911247407+904928305+900267144+897754009+897021828+897187179
2929+897345580+896966219+896017009+894777117+893647530+893146139+893752077
2919+895522569+897953554+900307235+902059612+903131133+903791557+904352769
2910+905001186+905911147+907314986+909381777+912172674+915698913+919785521
2900+923902813+927424276+930143557+932397114+934626728+936958713+939266685
2890+941466108+943539639+945397054+947012867+948643634+950592327+952754958
2880+954683780+956077438+957000178+957715929+958519658+959601921+960886258
2870+962107192+963130757+964024429+964789189+965260810+965309186+964988032
2860+964493171+964076456+963956392+964242791+964902302+965740856+966447129
2850+966774743+966651027+966005980+964581990+962029466+958037364+952240507
2840+944237346+934070922+922787689+912399532+905163940+902659933+905150670
2830+911535491+919983171+928815407+936961873+943906853+949590246+954305472
2820+958342791+961713086+964343406+966363014+967989779+969315682+970400052
2810+971409013+972433070+973287773+973728219+973837471+974014267+974566001
2800+975419932+976270141+976962582+977643578+978479745+979362252+980077302
2791+980625525+981117227+981524182+981830381+982223433+982840676+983519355
2781+984032752+984378692+984660176+984867304+984913785+984810081+984726457
2771+984867585+985249474+985670331+985977653+986218554+986435161+986529457
2761+986490980+986531283+986811994+987212700+987492569+987538067+987409999
2751+987245981+987103027+986906922+986648468+986525525+986686945+986965901
2741+987085053+986986052+986771341+986485574+986153186+985929627+986018517
2731+986398229+986769867+986911416+986968710+987210172+987647740+988089590
2721+988382379+988460385+988380272+988380483+988645888+989025530+989241084
2711+989292410+989405102+989671139+989980708+990252573+990534619+990868341
2701+991187389+991412913+991599399+991921396+992488366+993153354+993561361
2691+993478440+993030762+992528107+992171495+992033245+992139969+992401161
2681+992576975+992442096+991963875+991346702+990929216+990959969+991449494
2672+992210744+992955002+993389901+993428729+993323550+993441508+993884341
2662+994394439+994639763+994553261+994360456+994275638+994283151+994258226
2652+994167510+994073706+994067106+994249870+994651489+995116790+995388164
2642+995347932+995107312+994845698+994690317+994771413+995172259+995726731
2632+996080885+996070213+995883376+995801227+995912585+996101528+996227139
2622+996278746+996329931+996388770+996377746+996220188+995894119+995471156
2612+995066869+994659844+994085080+993267450+992311921+991405681+990740553
2602+990354452+990044040+989698241+989544404+989773088+990269354+990942977
2592+991828855+992707852+993196464+993315265+993474719+993862575+994223119
2582+994311517+994316573+994667076+995484215+996421770+997065342+997299222
2572+997271417+997211034+997323586+997658291+997988924+997954731+997410088
2563+996599338+995945445+995720622+995912796+996298195+996606781+996696864
2553+996641045+996681417+997073417+997820834+998551050+998819193+998570288
2543+998203074+998208832+998764427+999603613+1000291420+1000645715+1000783332
2533+1000835360+1000838169+1000806152+1000739239+1000692196+1000846945
2524+1001286338+1001751570+1001900492+1001763998+1001735702+1002174744
2516+1003115879+1004258385+1005153391+1005507756+1005410511+1005215178
2507+1005186953+1005363960+1005701474+1006124086+1006505834+1006819476
2499+1007152636+1007402173+1007258939+1006716122+1006260159+1006338727
2490+1006872627+1007445916+1007832298+1008139129+1008445398+1008556756
2482+1008328073+1007983959+1007900124+1008251470+1008945877+1009660084
2473+1009988540+1009844463+1009576600+1009493960+1009541424+1009584745
2465+1009674828+1009856750+1009957576+1009745673+1009231644+1008702168
2456+1008444416+1008503184+1008786844+1009270401+1009889680+1010358844
2448+1010393880+1010124613+1010037338+1010446119+1011160536+1011723574
2439+1011900862+1011855996+1011822153+1011712832+1011261853+1010509591
2431+1009841304+1009516498+1009463979+1009546339+1009760278+1010183452
2422+1010838750+1011509354+1011754187+1011378547+1010768958+1010463742
2414+1010557266+1010763411+1010802871+1010547576+1010021540+1009447900
2405+1009142824+1009240421+1009551815+1009758312+1009758171+1009715552
2397+1009755714+1009816869+1009869319+1010019574+1010303235+1010564708
2388+1010601851+1010349225+1009973234+1009791031+1009959893+1010287999
2380+1010500534+1010604519+1010779630+1010999186+1011032889+1010860656
2371+1010824637+1011232504+1011964826+1012622020+1012981300+1013110913
2363+1013065415+1012735765+1012147520+1011702440+1011834511+1012536150
2354+1013380040+1013837197+1013606617+1012848106+1012045782+1011684466
2346+1012023384+1012908138+1013808831+1014320894+1014463216+1014362811
2337+1014017434+1013541670+1013225571+1013117022+1012945140+1012574977
2329+1012107920+1011592557+1011135540+1011112510+1011818713+1013009666
2320+1014112011+1014820460+1015219832+1015436298+1015407862+1015029835
2312+1014403535+1013796895+1013430032+1013483674+1014126755+1015179810
2303+1015916555+1015630578+1014451069+1013328012+1013142720+1013893999
2295+1014695481+1014575768+1013392538+1011866458+1010679085+1009872478
2286+1009236559+1008777717+1008527337+1008352788+1008208359+1008232513
2278+1008474467+1008824619+1009307474+1010201847+1011698017+1013477776
2269+1014831624+1015310898+1015149338+1014964888+1015285551+1016349910
2261+1017866301+1018925183+1018795149+1017918329+1017483008+1017953856
2252+1018737293+1019246689+1019501702+1019807691+1020504555+1021738619
2244+1023058413+1023707041+1023501809+1022842087+1022028458+1021263628
2235+1020987831+1021534861+1022678771+1023804988+1024351737+1024226898
2227+1023981785+1024279628+1025085323+1025767583+1026034954+1026246084
2218+1026561200+1026409330+1025372424+1024018927+1023073369+1022309521
2210+1021129030+1019678218+1018663148+1018511488+1019109212+1019999443
2201+1020673698+1020900065+1020872331+1021076721+1021818662+1022634888
2193+1022655039+1022021297+1022044959+1023224678+1024196496+1023588241
2184+1021947011+1020694481+1019942640+1018797115+1017474442+1017323975
2176+1018587669+1019920944+1020615843+1021635406+1023910659+1026973772
2167+1029554803+1030744001+1030498115+1029550169+1028962065+1029389451
2159+1030461323+1031448097+1032598186+1034274382+1035380026+1034680283
2150+1033048533+1032506980+1033582152+1035126276+1035881909+1035236441
2142+1033580958+1032297815+1032282860+1032790640+1032595729+1031502793
2133+1030018841+1028434203+1026825623+1025453239+1024850460+1025464824
2125+1027109985+1028919656+1029934655+1029591735+1027979784+1026054403
2116+1025083638+1025257766+1025343917+1024292197+1022637276+1021692630
2108+1021842815+1022240081+1021993563+1021210617+1020769679+1021245864
2099+1022339362+1023423521+1024245786+1024800820+1025032733+1025061801
2091+1025210583+1025536301+1025799670+1025927036+1025968462+1025759298
2082+1025254185+1024932329+1025197944+1025669074+1025755436+1025584257
2074+1025617959+1025699476+1025286834+1024348367+1023287659+1022312330
2065+1021579095+1021554521+1022522126+1023974623+1025016233+1025305932
2057+1025244706+1025112495+1024526568+1023446481+1023133471+1024855375
2048+1027836760+1029857070+1029881574+1028654672+1027331086+1026875334
2040+1027819769+1029728299+1031540497+1032650706+1033238669+1033707833
2031+1034122371+1034155371+1033522892+1032340926+1030990519+1029892247
2023+1029423083+1029723455+1030724060+1032372030+1034241592+1035286151
2014+1035083797+1034804350+1035709395+1037359752+1038352565+1038226322
2006+1037601566+1036963119+1036344683+1035739798+1035154081+1034562676
1997+1034147577+1034295446+1035033174+1035658982+1035300756+1033940800
1989+1032498133+1031798671+1031788981+1031671445+1030649424+1028874790
1980+1027719154+1028383369+1030108573+1031054132+1031183956+1032276821
1972+1035056204+1038087721+1039384345+1038299835+1036123722+1034835875
1963+1035109776+1036121686+1037135773+1038154283+1038785147+1037969763
1955+1035675202+1033602373+1033312042+1034636470+1036542613+1038340277
1946+1039461860+1039344324+1038221126+1037193839+1037080515+1037749365
1938+1038531678+1038721464+1038116508+1037368950+1037246780+1037598336
1929+1037670656+1037275918+1036892064+1036728186+1036494377+1036142188
1921+1036047612+1036280298+1036368906+1035957177+1035236370+1034628887
1912+1034454899+1034784128+1035323294+1035691632+1035830232+1035929935
1904+1036092688+1036174978+1035869270+1035101210+1034374576+1034372891
1895+1035193821+1036333098+1037343042+1038044049+1038309945+1038219160
1887+1038215017+1038632153+1039308234+1039923160+1040500592+1041239443
1878+1041985667+1042316230+1042138661+1041848892+1041884982+1042373103
1870+1043137722+1043811838+1044057443+1043788035+1043119678+1042290462
1861+1041601953+1041229122+1041170494+1041393631+1041734445+1041707343
1853+1040827925+1039108969+1036949006+1034664555+1032340153+1029993634
1844+1027823069+1026272204+1025686908+1026131988+1027489346+1029358768
1836+1031142881+1032586180+1033986719+1035653506+1037325980+1038452969
1827+1039096612+1039786034+1040624166+1041298352+1041851209+1042685761
1819+1043842099+1044829154+1045258577+1045259981+1045153538+1045089434
1810+1045077076+1045100668+1045104038+1045002931+1044831331+1044811811
1802+1045132334+1045605359+1045792547+1045573131+1045242919+1045100949
1793+1045231756+1045559370+1045965552+1046408596+1046898823+1047378729
1785+1047775854+1048151213+1048579091+1048900597+1048895190+1048646496
1776+1048461695+1048543914+1048884869+1049274621+1049438147+1049296458
1768+1048967439+1048645162+1048531978+1048691011+1048920397+1048849060
1759+1048275279+1047278465+1046116440+1045082904+1044211701+1043307076
1751+1042409122+1041995006+1042363694+1043168546+1043839923+1044030762
1742+1043702095+1042965771+1041988967+1041081534+1040605700+1040719516
1734+1041108355+1041206022+1041129700+1041421295+1042249879+1043376376
1725+1044521130+1045576923+1046580758+1047645820+1048838458+1050035028
1717+1050929191+1051317961+1051244448+1050855116+1050388972+1050121250
1708+1050185144+1050509598+1050908127+1051246554+1051564338+1052010191
1700+1052624344+1053171725+1053445205+1053490352+1053503762+1053686105
1691+1054123813+1054724205+1055250171+1055663445+1056346617+1057587703
1683+1058742988+1059159421+1059125508+1059075868+1059210957+1059563567
1674+1060016090+1060386955+1060581165+1060555186+1060315970+1060019460
1666+1059835572+1059810928+1059898202+1059986671+1059978175+1059857058
1657+1059687774+1059655897+1060123937+1061221648+1062097625+1062328416
1649+1062411337+1062674496+1062989682+1063032231+1062790558+1062409301
1640+1061902925+1061157052+1059991656+1058283584+1056387130+1055029140
1632+1054494257+1054736843+1055699043+1057246397+1059170374+1061385033
1623+1063844034+1066232962+1068206299+1069812141+1071301359+1072696702
1615+1073644367+1073741823+1072623610+1069718055+1064035224+1053994692
1606+1037577834+1013192360+981625710+948205786+921710551+908945754+910403657
1596+920675541+931223152+933488013+922568344+900677258+877876352+867226300
1587+875922955+900563723+931223573+959007427+980063470+995110120+1007048370
1577+1018297900+1028353950+1035480712+1040329342+1044584181+1048948412
1568+1052898737+1055945771+1058283443+1060109614+1061427793+1062496154
1560+1064031994+1066176932+1067771540+1068610796+1069172921+1069619757
1551+1069901171+1069804136+1069061283+1067643963+1065661147+1063099916
1543+1059893288+1056216934+1053170110+1052071557+1052423184+1053230914
1534+1054121216+1054756784+1054567560+1053191314+1050170539+1044733384
1526+1036666329+1025291960+1006293931+974119306+929304722+874168121+808012500
1516+737962373+678740358+637681819+613612655+604742223+611887170+637651979
1506+674372195+705296537+728395568+749203829+770257905+790918648+808967537
1496+821906463+829275671+833248324+836628800+841844082+850243526+861267953
1486+873564851+886299387+899135099+911769441+923565299+933979575+943067808
1476+950842425+956348811+957403270+951495968+938160760+918405484+891875283
1466+858529715+825228592+805254462+804329265+817455098+836655621+850341122
1456+844455094+819864598+787717496+755101933+728034743+712854899+711324746
1446+716725532+718653301+712475257+702740783+698680856+707254568+730476682
1436+762979343+792445150+813252849+829593455+845099439+858246687+865310187
1426+863811771+851781753+828257933+794783805+753831218+711939672+685238994
1417+684767865+703921064+731817961+761810155+790430387+816014818+838178541
1407+857604729+875082084+890303425+902822125+913449919+923291327+932492954
1397+940777108+948241454+954868019+960339719+964785748+968887733+973185613
1387+977485177+981219036+984339443+987188687+989920535+992502619+994903132
1377+997117791+999182475+1001110806+1002795638+1004184662+1005386147+1006447487
1367+1007278177+1007869862+1008394283+1009080967+1010039866+1011123604
1358+1011921645+1011713744+1009432243+1003977744+994643765+981220370+964258378
1349+945540640+927626279+912483507+900562249+890838939+881715459+872569652
1339+864974147+861827972+864985733+874290362+888192891+904538553+921223975
1329+936739508+950390394+962074262+971870804+979885901+986386152+991900192
1319+997125515+1002647628+1008675346+1015125816+1021873639+1028750091
1310+1035452065+1041686630+1047345940+1052449584+1056953468+1060549569
1302+1062456133+1061230775+1054948114+1042548776+1026068094+1010698675
1293+1000645364+995085124+990028944+983785813+978338195+975455249+974282481
1283+973544893+973670574+975437204+977867136+978503407+975166041+966901899
1273+953724529+935998901+913968021+887332992+854985222+815423835+768001048
1264+714250944+658569702+607895911+569635151+548231729+543385802+551536481
1254+568346742+589726185+611345056+628084121+634696994+627803058+608278361
1244+582517766+560839706+552804423+562359993+586617925+618791919+652252496
1234+682642306+707635122+725775359+735637620+735664933+724593673+702344782
1224+671116839+635924668+603733262+581205098+572232085+576810430+591922940
1214+613466402+637813188+662548954+686540673+709478004+731239898+751574080
1204+770173158+786877468+801758907+815016670+826748494+836771192+844548969
1194+849071319+848665769+841269389+825876939+804846525+784844450+774076440
1184+777044275+791672947+811624117+831058520+847283064+860104383+870104262
1174+877747721+883331412+887147700+889600382+891152932+892094488+892393034
1164+891818551+890019975+886336529+879748863+869216980+854004276+833765091
1154+808633955+779263708+746795943+713130345+680873500+651597478+623552011
1145+592500162+556377704+519138718+489253880+474090641+475531868+490307988
1135+513479549+541102931+570438528+599329571+626260408+650611968+672405318
1125+691871035+709288358+724976545+739227893+752207331+763956708+774538302
1115+784134596+792957284+801114492+808595619+815358046+821454291+827102929
1105+832570206+837977943+843312518+848579688+853818843+858960894+863779262
1095+868098486+872049303+875979336+880036174+883995416+887596853+890867656
1085+893989678+897030815+899971055+902908417+906069899+909576337+913276423
1075+916893798+920285859+923490171+926626095+929826123+933154150+936560746
1065+940012348+943611186+947467075+951521807+955578364+959421474+962931001
1055+966166347+969233462+971948951+973700976+973557250+970243055+962146581
1045+948028709+928278628+905488746+883549915+865891200+853972890+846276982
1035+837517345+818841805+780906412+719993667+643115886+566641373+508076727
1026+477354563+474093590+491081525+519480866+552111420+584441989+614388439
1016+641554770+666230153+688637936+708776014+726656743+742499468+756634964
1006+769285806+780541796+790563300+799676599+808150679+815958788+822899346
996+828930574+834285791+839284467+844118703+848820870+853371586+857796691
986+862121182+866212916+869712965+872148584+873104675+872460892+870812992
976+869668520+870706338+874446937+879831574+885281930+889948357+893841669
966+897187460+899997315+902059542+903059305+902832727+901759170+900870344
956+901325745+903635613+907370314+911492661+914718669+915474652+911855030
946+902345309+887366695+870400631+857026174+851816438+855486894+864902951
936+875769399+885274557+892675501+898308622+902437639+904600621+903847235
926+900071460+895225147+892511694+893923889+898896515+905423869+911850677
916+917409021+921863686+925314375+928127881+930674156+933095803+935339109
907+937336178+939152519+940958258+942802754+944476772+945723545+946582812
897+947460124+948800841+950655448+952604210+954125446+954896876+954648673
887+952835492+948362291+939203915+922403343+895638069+860124885+822178890
877+790980085+773684862+771763904+781237537+795857362+810311555+821685011
867+829320818+833902428+836303433+836675421+834636997+830795572+827765319
857+828739173+835053219+845798620+859346574+874199857+888747715+901535823
847+912099793+920948740+928638540+935255907+940804702+945642870+950299398
837+955044464+959776892+964153972+967730482+970179793+971476558+971555267
827+969285139+961380276+942456182+907470789+856261624+796985896+744361026
817+712391423+706883422+723857279+754057866+788426508+820743104+847797445
807+868784678+884521944+896468128+905898790+913650518+920266972+926056316
798+930943142+934453934+935974678+934887218+930385300+921677130+909218180
788+895972775+886711607+885147612+891467065+902735553+915524223+927830740
778+938697188+946683146+948866912+940661888+916725778+874248024+817816906
768+760894227+719716045+703184459+707796402+721511532+731746414+731266930
758+719893754+702876295+687310068+678202105+675868084+675764379+671137692
748+657749192+637857984+619800810+612705012+620727622+641590368+669551790
738+699347809+727993458+753988144+775701731+790601777+795766366+789631714
728+774159011+755429547+741240268+737028048+743441657+757110306+773358863
718+788892582+802707274+814994834+825871322+835272986+843370233+850481337
708+856774811+862414391+867787794+873207186+878400562+882523892+884692913
698+884486065+882096716+878236053+873936418+870117672+866865405+863002776
688+856778743+847459509+836225285+825371616+816976105+812514418+813115442
679+819102015+828880161+839281377+847728846+853798973+859051188+866347795
669+878254800+892054888+901867930+907618166+911657100+914768941+917021305
659+918976176+921298261+924114435+927147918+930079382+932766855+935196928
649+937263719+938941459+940605437+942649970+944943057+947070090+948839529
639+950274542+951440991+952498751+953712172+955277080+957113291+958808654
629+959902152+960308685+960295204+959876945+958264223+953808996+944541649
619+929608323+911362486+895730821+888760493+892338338+903621571+917707496
609+930224231+938053194+938711230+929711466+908901098+876304633+836774492
599+800435041+778027257+774181690+785471733+804422789+824603837+842745337
589+858030220+870832511+881803577+891111436+898370479+903444072+906911683
579+909504579+911522853+913110088+914695920+916752880+919319517+921999759
569+924155018+924999891+923816872+920318508+914943561+908808768+902827813
560+896456332+887875599+875922183+861346592+846006661+831650977+819684993
550+811288569+807324553+808188243+813526539+822134445+832614300+843909328
540+854943445+864653555+872822559+880008089+886540147+892379202+897729505
530+903118143+908938241+914880650+919669178+922161740+922920041+923669354
520+925472846+928125564+930890623+933190872+934771156+935809607+936905281
510+938610826+940905808+943298879+945511712+947768289+950144789+951996938
500+952544108+951735254+950094095+947988196+944735437+937821421+924037411
490+903397872+881785672+867963748+867217594+877397288+891460886+904004864
480+913854768+921524417+927178601+930558305+930634767+925489627+914243397
470+898951071+883502872+871846036+866586309+867326845+871353211+876407917
460+881992590+888666408+896999640+906708978+916536905+924969770+931064330
450+935206126+938530432+941306093+943049482+944172118+946093076+949398424
441+952857188+954665314+954175437+952571983+952082879+954063026+958206788
431+963308537+967755338+969931731+969442697+967744946+966555608+965722601
421+963960113+961812859+961623284+962657592+961785897+958093113+953195334
411+949253856+947344974+947203987+947681997+947742872+947252083+946287285
401+944443281+941552541+938571928+936998313+937255574+938400818+938566521
391+936549582+933821034+933365843+936223162+939790404+940385109+937454558
381+933034718+929043880+927668267+932366220+944628362+958629049
##END=
